Time, Voltage, c1c, c0c, c1a, c2a
0, 0.72137046, 1126.2756, 8.282502, 1069.2191, 8.282502
120, 0.73020184, 1117.9945, 16.567532, 1060.9303, 16.567532
240, 0.7354468, 1109.7163, 24.851492, 1052.6406, 24.851492
360, 0.7392237, 1101.4429, 33.13249, 1044.3519, 33.13249
480, 0.74219763, 1093.1733, 41.41163, 1036.0632, 41.41163
600, 0.74466443, 1084.9065, 49.689953, 1027.7734, 49.689953
720, 0.7467814, 1076.6433, 57.966534, 1019.48346, 57.966534
840, 0.7486423, 1068.385, 66.24006, 1011.19464, 66.24006
960, 0.7503083, 1060.132, 74.5104, 1002.9071, 74.5104
1080, 0.75182164, 1051.8806, 82.78081, 994.6176, 82.78081
1200, 0.75321114, 1043.6327, 91.049675, 986.32776, 91.049675
1320, 0.75449866, 1035.3888, 99.316376, 978.03815, 99.316376
1440, 0.7557012, 1027.148, 107.582054, 969.7476, 107.582054
1560, 0.75683075, 1018.913, 115.843735, 961.4592, 115.843735
1680, 0.7578985, 1010.68176, 124.10363, 953.1707, 124.10363
1800, 0.7589129, 1002.45245, 132.36346, 944.8803, 132.36346
1920, 0.75987947, 994.2292, 140.61916, 936.59216, 140.61916
2040, 0.76080525, 986.00824, 148.87448, 928.3025, 148.87448
2160, 0.76169395, 977.79175, 157.1272, 920.0135, 157.1272
2280, 0.7625501, 969.5785, 165.37857, 911.72394, 165.37857
2400, 0.76337695, 961.36914, 173.628, 903.43445, 173.628
2520, 0.76417744, 953.1628, 181.87634, 895.14417, 181.87634
2640, 0.76495385, 944.96124, 190.12173, 886.8549, 190.12173
2760, 0.7657088, 936.7632, 198.36555, 878.5653, 198.36555
2880, 0.76644385, 928.5702, 206.60623, 870.277, 206.60623
3000, 0.76716125, 920.38025, 214.84569, 861.9879, 214.84569
3120, 0.7678621, 912.1947, 223.08275, 853.6994, 223.08275
3240, 0.76854825, 904.0119, 231.31891, 845.40985, 231.31891
3360, 0.7692204, 895.83325, 239.55286, 837.12067, 239.55286
3480, 0.7698801, 887.65796, 247.78532, 828.83105, 247.78532
3600, 0.7705281, 879.48676, 256.0156, 820.5417, 256.0156
3720, 0.7711654, 871.3195, 264.24384, 812.2525, 264.24384
3840, 0.7717928, 863.15625, 272.46997, 803.9635, 272.46997
3960, 0.77241117, 854.9969, 280.69412, 795.6746, 280.69412
4080, 0.7730211, 846.8417, 288.91595, 787.3861, 288.91595
4200, 0.77362376, 838.68866, 297.13757, 779.09595, 297.13757
4320, 0.7742189, 830.5401, 305.3566, 770.80646, 305.3566
4440, 0.77480775, 822.395, 313.57404, 762.51666, 313.57404
4560, 0.7753901, 814.2561, 321.78723, 754.22925, 321.78723
4680, 0.7759676, 806.1186, 330.0009, 745.93945, 330.0009
4800, 0.7765396, 797.9861, 338.2114, 737.6509, 338.2114
4920, 0.7771073, 789.8567, 346.42072, 729.36163, 346.42072
5040, 0.77767086, 781.73016, 354.62906, 721.0715, 354.62906
5160, 0.7782303, 773.60834, 362.8346, 712.7822, 362.8346
5280, 0.77878624, 765.4913, 371.03726, 704.49396, 371.03726
5400, 0.779339, 757.37897, 379.2371, 696.20667, 379.2371
5520, 0.77988946, 749.26886, 387.43655, 687.9178, 387.43655
5640, 0.78043735, 741.16223, 395.63446, 679.6286, 395.63446
5760, 0.7809829, 733.0601, 403.82974, 671.34015, 403.82974
5880, 0.7815267, 724.96216, 412.02277, 663.05206, 412.02277
6000, 0.7820692, 716.8664, 420.2155, 654.7624, 420.2155
6120, 0.7826102, 708.7748, 428.40598, 646.4731, 428.40598
6240, 0.7831501, 700.688, 436.59354, 638.1848, 436.59354
6360, 0.7836894, 692.6045, 444.77966, 629.89606, 444.77966
6480, 0.7842282, 684.52454, 452.9641, 621.60706, 452.9641
6600, 0.7847667, 676.44904, 461.14603, 613.3187, 461.14603
6720, 0.7853052, 668.37726, 469.32605, 605.0304, 469.32605
6840, 0.7858441, 660.3088, 477.5047, 596.7416, 477.5047
6960, 0.7863834, 652.244, 485.68152, 588.4527, 485.68152
7080, 0.7869233, 644.1838, 493.8557, 580.16455, 493.8557
7200, 0.7874644, 636.12665, 502.02872, 571.87573, 502.02872
7320, 0.7880065, 628.0736, 510.19952, 563.5872, 510.19952
7440, 0.78855, 620.0244, 518.3683, 555.2988, 518.3683
7560, 0.7890951, 611.9799, 526.53424, 547.01135, 526.53424
7680, 0.7896426, 603.93726, 534.7003, 538.7219, 534.7003
7800, 0.7901917, 595.89935, 542.86346, 530.43353, 542.86346
7920, 0.7907433, 587.86566, 551.0243, 522.14557, 551.0243
8040, 0.7912974, 579.83655, 559.18243, 513.8584, 559.18243
8160, 0.79185444, 571.811, 567.3389, 505.57095, 567.3389
8280, 0.7924149, 563.7875, 575.4952, 497.28192, 575.4952
8400, 0.7929783, 555.7689, 583.64844, 488.99405, 583.64844
8520, 0.7935456, 547.7535, 591.8004, 480.7055, 591.8004
8640, 0.79411644, 539.7432, 599.9491, 472.4184, 599.9491
8760, 0.79469204, 531.73425, 608.0984, 464.12878, 608.0984
8880, 0.7952714, 523.7312, 616.2436, 455.84137, 616.2436
9000, 0.79585606, 515.7303, 624.3887, 447.55228, 624.3887
9120, 0.79644537, 507.73398, 632.53094, 439.26407, 632.53094
9240, 0.7970403, 499.74066, 640.6721, 430.9751, 640.6721
9360, 0.79764086, 491.7507, 648.81177, 422.68573, 648.81177
9480, 0.79824716, 483.76547, 656.94855, 414.39734, 656.94855
9600, 0.7988601, 475.78317, 665.08435, 406.10812, 665.08435
9720, 0.7994796, 467.80484, 673.218, 397.81912, 673.218
9840, 0.8001063, 459.8297, 681.35034, 389.52957, 681.35034
9960, 0.8007402, 451.8594, 689.4798, 381.2411, 689.4798
10080, 0.8013823, 443.89215, 697.60803, 372.9519, 697.60803
10200, 0.8020326, 435.92868, 705.7344, 364.66275, 705.7344
10320, 0.80269194, 427.9683, 713.8595, 356.37292, 713.8595
10440, 0.8033602, 420.01257, 721.9818, 348.08405, 721.9818
10560, 0.80403876, 412.05917, 730.1037, 339.79373, 730.1037
10680, 0.8047273, 404.11053, 738.22266, 331.50443, 738.22266
10800, 0.8054271, 396.16507, 746.34033, 323.21454, 746.34033
10920, 0.8061382, 388.22406, 754.45544, 314.92535, 754.45544
11040, 0.8068618, 380.2863, 762.56915, 306.63568, 762.56915
11160, 0.8075982, 372.35312, 770.6802, 298.34686, 770.6802
11280, 0.80834824, 364.42426, 778.78876, 290.05862, 778.78876
11400, 0.8091129, 356.49927, 786.89526, 281.7705, 786.89526
11520, 0.80989325, 348.5771, 795.0009, 273.48145, 795.0009
11640, 0.81069005, 340.65848, 803.10486, 265.19223, 803.10486
11760, 0.8115043, 332.74326, 811.2073, 256.90265, 811.2073
11880, 0.81233704, 324.8324, 819.3072, 248.61371, 819.3072
12000, 0.8131895, 316.92593, 827.40454, 240.32542, 827.40454
12120, 0.81406343, 309.0229, 835.50037, 232.0368, 835.50037
12240, 0.8149599, 301.12433, 843.59357, 223.74896, 843.59357
12360, 0.8158812, 293.2275, 851.6869, 215.45912, 851.6869
12480, 0.8168283, 285.33527, 859.7775, 207.1701, 859.7775
12600, 0.81780374, 277.44662, 867.8664, 198.88097, 867.8664
12720, 0.81880975, 269.56152, 875.9536, 190.59164, 875.9536
12840, 0.81984884, 261.67944, 884.0397, 182.30162, 884.0397
12960, 0.82092345, 253.80254, 892.1224, 174.01302, 892.1224
13080, 0.8220372, 245.92944, 900.2032, 165.7245, 900.2032
13200, 0.8231938, 238.06017, 908.282, 157.43608, 908.282
13320, 0.82439744, 230.19463, 916.35895, 149.14766, 916.35895
13440, 0.8256532, 222.33206, 924.4348, 140.85849, 924.4348
13560, 0.82696617, 214.47446, 932.5076, 132.57056, 932.5076
13680, 0.82834405, 206.6193, 940.5798, 124.28134, 940.5798
13800, 0.5405932, 215.33884, 932.07526, 132.57076, 932.07526
13920, 0.5392281, 224.05429, 923.57294, 140.86, 923.57294
14040, 0.53792435, 232.76564, 915.07275, 149.14906, 915.07275
14160, 0.53667593, 241.47261, 906.575, 157.43767, 906.575
14280, 0.53547704, 250.1768, 898.07806, 165.72742, 898.07806
14400, 0.53432363, 258.87766, 889.58246, 174.01775, 889.58246
14520, 0.5332118, 267.5743, 881.0891, 182.30782, 881.0891
14640, 0.5321383, 276.26605, 872.5987, 190.5969, 872.5987
14760, 0.5310993, 284.95508, 864.1091, 198.88713, 864.1091
14880, 0.5300929, 293.6396, 855.62195, 207.1768, 855.62195
15000, 0.529116, 302.32117, 847.13586, 215.46744, 847.13586
15120, 0.52816737, 310.99683, 838.65375, 223.75607, 838.65375
15240, 0.52724427, 319.66858, 830.1735, 232.04475, 830.1735
15360, 0.5263448, 328.3378, 821.6939, 240.33478, 821.6939
15480, 0.5254682, 337.00183, 813.2175, 248.62354, 813.2175
15600, 0.524612, 345.6635, 804.7416, 256.91385, 804.7416
15720, 0.5237758, 354.32025, 796.2686, 265.20313, 796.2686
15840, 0.5229579, 362.97287, 787.7978, 273.4922, 787.7978
15960, 0.52215743, 371.62097, 779.3295, 281.78064, 779.3295
16080, 0.52137315, 380.26505, 770.86334, 290.06897, 770.86334
16200, 0.52060366, 388.90726, 762.3971, 298.35934, 762.3971
16320, 0.5198492, 397.5438, 753.9346, 306.64795, 753.9346
16440, 0.51910794, 406.17706, 745.4733, 314.9372, 745.4733
16560, 0.5183798, 414.80563, 737.01483, 323.22565, 737.01483
16680, 0.51766354, 423.43094, 728.5576, 331.51474, 728.5576
16800, 0.516959, 432.05112, 720.10364, 339.8026, 720.10364
16920, 0.5162651, 440.6676, 711.65137, 348.0907, 711.65137
17040, 0.5155815, 449.28006, 703.2012, 356.37866, 703.2012
17160, 0.5149072, 457.89008, 694.75146, 364.66806, 694.75146
17280, 0.5142426, 466.49445, 686.3055, 372.95572, 686.3055
17400, 0.51358634, 475.09528, 677.861, 381.24374, 677.861
17520, 0.5129384, 483.69217, 669.4186, 389.5317, 669.4186
17640, 0.51229787, 492.2864, 660.97687, 397.82092, 660.97687
17760, 0.5116648, 500.87677, 652.53705, 406.11017, 652.53705
17880, 0.51103854, 509.46408, 644.0984, 414.40024, 644.0984
18000, 0.5104191, 518.0464, 635.6627, 422.6892, 635.6627
18120, 0.5098057, 526.6245, 627.2293, 430.9779, 627.2293
18240, 0.5091979, 535.1996, 618.79706, 439.26743, 618.79706
18360, 0.50859576, 543.7703, 610.3672, 447.5565, 610.3672
18480, 0.50799894, 552.33594, 601.9404, 455.84433, 601.9404
18600, 0.50740653, 560.89886, 593.5144, 464.1334, 593.5144
18720, 0.5068188, 569.458, 585.0903, 472.42252, 585.0903
18840, 0.50623524, 578.0127, 576.66864, 480.71112, 576.66864
18960, 0.5056556, 586.5637, 568.2487, 488.99994, 568.2487
19080, 0.50507957, 595.11084, 559.8308, 497.2887, 559.8308
19200, 0.50450706, 603.6532, 551.41565, 505.5766, 551.41565
19320, 0.50393736, 612.1924, 543.0018, 513.8652, 543.0018
19440, 0.5033705, 620.7277, 534.5898, 522.1538, 534.5898
19560, 0.50280625, 629.25934, 526.17957, 530.4426, 526.17957
19680, 0.5022443, 637.7867, 517.7717, 538.731, 517.7717
19800, 0.50168425, 646.3107, 509.36523, 547.02, 509.36523
19920, 0.501126, 654.83093, 500.9606, 555.309, 500.9606
20040, 0.5005695, 663.3456, 492.5596, 563.5964, 492.5596
20160, 0.5000139, 671.8577, 484.1592, 571.8851, 484.1592
20280, 0.49945918, 680.3671, 475.7596, 580.1749, 475.7596
20400, 0.49890572, 688.8706, 467.36398, 588.4627, 467.36398
20520, 0.4983523, 697.3713, 458.9692, 596.7516, 458.9692
20640, 0.49779934, 705.8672, 450.57727, 605.03955, 450.57727
20760, 0.49724603, 714.36035, 442.18613, 613.3287, 442.18613
20880, 0.49669272, 722.8486, 433.79797, 621.6167, 433.79797
21000, 0.4961386, 731.33344, 425.41125, 629.9053, 425.41125
21120, 0.4955836, 739.8148, 417.02606, 638.1942, 417.02606
21240, 0.49502742, 748.2924, 408.64276, 646.4832, 408.64276
21360, 0.49447, 756.76483, 400.2627, 654.77094, 400.2627
21480, 0.49391043, 765.2348, 391.88318, 663.06006, 391.88318
21600, 0.49334905, 773.70013, 383.50638, 671.3484, 383.50638
21720, 0.492785, 782.16223, 375.13083, 679.6374, 375.13083
21840, 0.49221843, 790.6198, 366.75787, 687.9257, 366.75787
21960, 0.49164882, 799.0723, 358.38803, 696.2128, 358.38803
22080, 0.49107528, 807.5225, 350.01862, 704.5015, 350.01862
22200, 0.49049795, 815.96924, 341.6507, 712.7906, 341.6507
22320, 0.48991647, 824.4113, 333.28555, 721.07886, 333.28555
22440, 0.48933017, 832.8494, 324.92242, 729.367, 324.92242
22560, 0.4887385, 841.28406, 316.5608, 737.6556, 316.5608
22680, 0.4881413, 849.7142, 308.20178, 745.9435, 308.20178
22800, 0.48753774, 858.1404, 299.8448, 754.2313, 299.8448
22920, 0.48692736, 866.5627, 291.48972, 762.5191, 291.48972
23040, 0.4863095, 874.9812, 283.13654, 770.80695, 283.13654
23160, 0.48568335, 883.3967, 274.78442, 779.09564, 274.78442
23280, 0.48504838, 891.8088, 266.43384, 787.38477, 266.43384
23400, 0.48440406, 900.2159, 258.08627, 795.6728, 258.08627
23520, 0.4837491, 908.61945, 249.74036, 803.9611, 249.74036
23640, 0.4830827, 917.0195, 241.39601, 812.24976, 241.39601
23760, 0.4824038, 925.41644, 233.05283, 820.5392, 233.05283
23880, 0.48171157, 933.809, 224.71211, 828.82806, 224.71211
24000, 0.48100454, 942.1975, 216.37355, 837.1167, 216.37355
24120, 0.48028138, 950.5818, 208.03731, 845.40497, 208.03731
24240, 0.47954038, 958.9627, 199.70245, 853.6937, 199.70245
24360, 0.47878003, 967.3396, 191.36969, 861.9823, 191.36969
24480, 0.47799844, 975.7121, 183.03946, 870.2703, 183.03946
24600, 0.47719288, 984.08185, 174.71, 878.55945, 174.71
24720, 0.47636127, 992.44775, 166.3825, 886.8486, 166.3825
24840, 0.47550082, 1000.8089, 158.05786, 895.1367, 158.05786
24960, 0.4746074, 1009.1675, 149.73381, 903.4262, 149.73381
25080, 0.4736783, 1017.51984, 141.41411, 911.7133, 141.41411
25200, 0.47270703, 1025.8711, 133.09352, 920.0032, 133.09352
25320, 0.47168976, 1034.217, 124.7764, 928.2915, 124.7764
25440, 0.4706187, 1042.5597, 116.46063, 936.5804, 116.46063
25560, 0.46948636, 1050.8972, 108.14811, 944.8679, 108.14811
25680, 0.46828127, 1059.2334, 99.834915, 953.1581, 99.834915
25800, 0.46699202, 1067.565, 91.52453, 961.4473, 91.52453
25920, 0.4656012, 1075.8934, 83.21533, 969.7373, 83.21533
26040, 0.7533055, 1067.6455, 91.4844, 961.44714, 91.4844
26160, 0.7545884, 1059.4025, 99.7505, 953.158, 99.7505
26280, 0.7557871, 1051.1627, 108.01511, 944.86847, 108.01511
26400, 0.75691384, 1042.9275, 116.27715, 936.5796, 116.27715
26520, 0.7579792, 1034.6956, 124.53786, 928.29016, 124.53786
26640, 0.7589912, 1026.4669, 132.79713, 920.00024, 132.79713
26760, 0.7599563, 1018.24255, 141.05402, 911.7108, 141.05402
26880, 0.7608804, 1010.02155, 149.30946, 903.4209, 149.30946
27000, 0.76176775, 1001.8054, 157.56195, 895.1321, 157.56195
27120, 0.7626228, 993.59283, 165.8128, 886.84296, 165.8128
27240, 0.76344824, 985.3855, 174.0603, 878.5553, 174.0603
27360, 0.76424795, 977.18085, 182.30696, 870.26654, 182.30696
27480, 0.76502395, 968.97943, 190.55238, 861.9772, 190.55238
27600, 0.7657782, 960.7827, 198.79497, 853.6887, 198.79497
27720, 0.76651293, 952.59, 207.0354, 845.4005, 207.0354
27840, 0.7672299, 944.40094, 215.2742, 837.11206, 215.2742
27960, 0.7679309, 936.2144, 223.51231, 828.8224, 223.51231
28080, 0.7686167, 928.0327, 231.74748, 820.53375, 231.74748
28200, 0.7692888, 919.85504, 239.98048, 812.24536, 239.98048
28320, 0.7699485, 911.68085, 248.212, 803.9566, 248.212
28440, 0.7705967, 903.5099, 256.4421, 795.6673, 256.4421
28560, 0.771234, 895.34406, 264.669, 787.37933, 264.669
28680, 0.771862, 887.1802, 272.89584, 779.08954, 272.89584
28800, 0.7724806, 879.02094, 281.11996, 770.8006, 281.11996
28920, 0.7730912, 870.86487, 289.3428, 762.511, 289.3428
29040, 0.7736939, 862.71326, 297.56308, 754.22205, 297.56308
29160, 0.7742898, 854.56476, 305.7821, 745.93243, 305.7821
29280, 0.77487916, 846.42004, 313.9993, 737.6428, 313.9993
29400, 0.77546245, 838.27966, 322.21405, 729.35376, 322.21405
29520, 0.77604043, 830.14276, 330.4272, 721.0644, 330.4272
29640, 0.7766135, 822.0091, 338.639, 712.7745, 338.639
29760, 0.77718174, 813.8804, 346.84775, 704.4857, 346.84775
29880, 0.77774596, 805.75543, 355.05463, 696.19696, 355.05463
30000, 0.7783064, 797.63416, 363.2597, 687.908, 363.2597
30120, 0.77886355, 789.51666, 371.46295, 679.6191, 371.46295
30240, 0.77941763, 781.4028, 379.66443, 671.32996, 379.66443
30360, 0.779969, 773.29297, 387.86377, 663.04114, 387.86377
30480, 0.78051805, 765.1866, 396.06158, 654.75195, 396.06158
30600, 0.7810651, 757.08325, 404.25824, 646.46204, 404.25824
30720, 0.78161025, 748.98425, 412.4524, 638.1727, 412.4524
30840, 0.78215384, 740.88947, 420.64426, 629.88385, 420.64426
30960, 0.78269637, 732.7983, 428.8344, 621.5948, 428.8344
31080, 0.78323793, 724.7107, 437.02283, 613.30554, 437.02283
31200, 0.7837789, 716.62665, 445.2096, 605.01605, 445.2096
31320, 0.7843194, 708.5467, 453.39417, 596.72687, 453.39417
31440, 0.7848597, 700.47064, 461.57672, 588.4378, 461.57672
31560, 0.78540003, 692.3992, 469.7566, 580.14954, 469.7566
31680, 0.785941, 684.32996, 477.9361, 571.85974, 477.9361
31800, 0.7864821, 676.26605, 486.11212, 563.57153, 486.11212
31920, 0.7870241, 668.20685, 494.2854, 555.28424, 494.2854
32040, 0.78756756, 660.1496, 502.4586, 546.9951, 502.4586
32160, 0.7881121, 652.0961, 510.6299, 538.706, 510.6299
32280, 0.78865826, 644.0462, 518.79956, 530.4166, 518.79956
32400, 0.7892058, 636.0017, 526.96564, 522.12897, 526.96564
32520, 0.7897557, 627.96063, 535.1302, 513.84094, 535.1302
32640, 0.7903077, 619.9237, 543.2925, 505.55328, 543.2925
32760, 0.79086244, 611.88995, 551.4534, 497.26505, 551.4534
32880, 0.7914197, 603.8605, 559.612, 488.97733, 559.612
33000, 0.7919803, 595.83344, 567.7701, 480.68826, 567.7701
33120, 0.7925439, 587.8109, 575.9255, 472.4, 575.9255
33240, 0.7931114, 579.7907, 584.08044, 464.1103, 584.08044
33360, 0.7936822, 571.776, 592.2318, 455.82227, 592.2318
33480, 0.7942575, 563.76416, 600.38214, 447.53336, 600.38214
33600, 0.7948367, 555.75793, 608.5288, 439.24628, 608.5288
33720, 0.7954211, 547.75354, 616.67554, 430.95728, 616.67554
33840, 0.7960102, 539.75366, 624.8196, 422.66907, 624.8196
33960, 0.7966046, 531.7578, 632.9615, 414.3811, 632.9615
34080, 0.7972044, 523.76666, 641.1005, 406.09415, 641.1005
34200, 0.7978106, 515.7778, 649.23926, 397.8056, 649.23926
34320, 0.798423, 507.79245, 657.3763, 389.5169, 657.3763
34440, 0.79904205, 499.81107, 665.5112, 381.2284, 665.5112
34560, 0.799668, 491.83405, 673.6437, 372.9405, 673.6437
34680, 0.80030155, 483.86108, 681.7739, 364.65292, 681.7739
34800, 0.80094326, 475.8906, 689.90356, 356.36407, 689.90356
34920, 0.80159295, 467.925, 698.0302, 348.07635, 698.0302
35040, 0.80225164, 459.96335, 706.1547, 339.78885, 706.1547
35160, 0.8029197, 452.0057, 714.2772, 331.5016, 714.2772
35280, 0.8035978, 444.0511, 722.3985, 323.2136, 722.3985
35400, 0.8042865, 436.09927, 730.51886, 314.92465, 730.51886
35520, 0.8049859, 428.1525, 738.6361, 306.63702, 738.6361
35640, 0.8056974, 420.20877, 746.75214, 298.3487, 746.75214
35760, 0.8064211, 412.2695, 754.8656, 290.06107, 754.8656
35880, 0.80715835, 404.33282, 762.97833, 281.7723, 762.97833
36000, 0.80790955, 396.3998, 771.08923, 273.48346, 771.08923
36120, 0.8086754, 388.47186, 779.19696, 265.19592, 779.19696
36240, 0.8094573, 380.5472, 787.3033, 256.90796, 787.3033
36360, 0.81025636, 372.62524, 795.4088, 248.61893, 795.4088
36480, 0.8110732, 364.70782, 803.5116, 240.33072, 803.5116
36600, 0.81190956, 356.79312, 811.6136, 232.04147, 811.6136
36720, 0.81276643, 348.88248, 819.7134, 223.75255, 819.7134
36840, 0.8136458, 340.9742, 827.8127, 215.46225, 827.8127
36960, 0.8145486, 333.0704, 835.90936, 207.1727, 835.90936
37080, 0.81547725, 325.1703, 844.0042, 198.88307, 844.0042
37200, 0.81643367, 317.27368, 852.0975, 190.59325, 852.0975
37320, 0.81742, 309.38104, 860.1886, 182.30365, 860.1886
37440, 0.8184388, 301.49277, 868.2773, 174.01466, 868.2773
37560, 0.81949365, 293.60712, 876.3652, 165.72458, 876.3652
37680, 0.82058734, 285.72498, 884.45135, 157.43431, 884.45135
37800, 0.82172364, 277.8475, 892.5347, 149.14497, 892.5347
37920, 0.8229077, 269.97305, 900.617, 140.85489, 900.617
38040, 0.82414395, 262.10342, 908.6963, 132.56592, 908.6963
38160, 0.5365456, 270.8089, 900.1985, 140.85599, 900.1985
38280, 0.5353206, 279.50836, 891.7048, 149.14397, 891.7048
38400, 0.53414464, 288.20554, 883.21136, 157.43355, 883.21136
38520, 0.53301406, 296.89786, 874.7208, 165.72221, 874.7208
38640, 0.53192407, 305.58746, 866.2311, 174.01208, 866.2311
38760, 0.53087175, 314.27255, 857.74384, 182.30138, 857.74384
38880, 0.52985346, 322.95453, 849.2578, 190.59145, 849.2578
39000, 0.528867, 331.63202, 840.77435, 198.88095, 840.77435
39120, 0.52790964, 340.30536, 832.2931, 207.1702, 832.2931
39240, 0.526979, 348.97525, 823.8133, 215.45992, 823.8133
39360, 0.5260738, 357.63995, 815.33673, 223.74837, 815.33673
39480, 0.52519155, 366.30154, 806.8613, 232.03761, 806.8613
39600, 0.52433085, 374.95975, 798.3874, 240.32736, 798.3874
39720, 0.5234907, 383.61334, 789.9161, 248.61642, 789.9161
39840, 0.5226692, 392.26382, 781.4459, 256.90628, 781.4459
39960, 0.5218657, 400.9098, 772.97833, 265.19553, 772.97833
40080, 0.5210788, 409.55145, 764.5131, 273.48438, 764.5131
40200, 0.5203076, 418.18893, 756.0501, 281.77295, 756.0501
40320, 0.5195507, 426.82404, 747.5875, 290.06305, 747.5875
